# O(3P)+CO2(000; j=0) -> O(3P)+CO2(000; j') scattering, statistically averaged (3A2+3B2+3B1) potential energy surfaces
# Differential cross sections; packaged by M. Gacesa (marko.gacesa@nasa.gov), Apr 30 2019
# E = 0.277725 eV
# theta(deg)     elastic DCS (cm^2)
0.0,1.1656814666666665e-10
0.1,1.0387472e-10
0.2,7.518715666666667e-11
0.30000000000000004,4.685109333333332e-11
0.4,2.6711536666666663e-11
0.5,1.4446819999999997e-11
0.6000000000000001,7.713816e-12
0.6999999999999998,4.397366666666667e-12
0.8,2.822934333333333e-12
0.9,2.010868e-12
1.0,1.5375873333333331e-12
1.0999999999999999,1.1888596999999997e-12
1.2000000000000002,8.808247333333332e-13
1.2999999999999998,6.329100666666666e-13
1.3999999999999997,4.642761666666666e-13
1.5,3.6682146666666665e-13
1.6,3.2833899999999997e-13
1.7,3.2297160000000005e-13
1.8,3.170039e-13
1.9,2.9451539999999996e-13
2.0,2.555242666666666e-13
2.1,2.0473333333333332e-13
2.1999999999999997,1.5332590333333332e-13
2.2999999999999994,1.1445522e-13
2.4000000000000004,9.406220666666668e-14
2.5000000000000004,9.155874e-14
2.5999999999999996,1.0199925999999998e-13
2.6999999999999997,1.1593269e-13
2.7999999999999994,1.2412599333333332e-13
2.9,1.2203471999999997e-13
3.0,1.0931528333333331e-13
3.1,8.951006999999999e-14
3.2,6.923051666666666e-14
3.3,5.4358513333333325e-14
3.4,4.790430333333334e-14
3.5,5.0280493333333334e-14
3.6,5.883270666666666e-14
3.7000000000000006,6.866526e-14
3.8,7.537931333333332e-14
3.9,7.615828333333334e-14
4.0,6.998784666666666e-14
4.1,5.870049333333333e-14
4.2,4.6172536666666665e-14
4.300000000000001,3.589802333333333e-14
4.3999999999999995,3.0206529e-14
4.5,3.0135162666666665e-14
4.599999999999999,3.4607483e-14
4.7,4.099160766666667e-14
4.800000000000001,4.6651167e-14
4.9,4.932804066666666e-14
5.000000000000001,4.7568470000000004e-14
5.1,4.182163866666666e-14
5.199999999999999,3.4058044e-14
5.299999999999999,2.6367036666666666e-14
5.3999999999999995,2.0582326666666667e-14
5.5,1.8039552666666666e-14
5.599999999999999,1.8788751333333335e-14
5.699999999999999,2.1747342000000004e-14
5.8,2.5491288333333332e-14
5.8999999999999995,2.8409758999999995e-14
6.0,2.908123233333333e-14
6.099999999999999,2.716040933333333e-14
6.2,2.3331580333333333e-14
6.3,1.8595614333333332e-14
6.4,1.4119282999999999e-14
6.5,1.1058024e-14
6.6,9.9404407e-15
6.700000000000001,1.0576637e-14
6.8,1.2393690666666666e-14
6.900000000000001,1.4465510666666664e-14
7.0,1.5742372666666666e-14
7.099999999999999,1.5662162333333332e-14
7.2,1.425796733333333e-14
7.299999999999999,1.1849869666666666e-14
7.400000000000001,9.026914333333332e-15
7.500000000000001,6.575753666666665e-15
7.6,5.069943133333333e-15
7.700000000000001,4.6950660666666666e-15
7.8,5.346548666666666e-15
7.900000000000001,6.598754333333332e-15
8.0,7.803610666666666e-15
8.1,8.454725333333331e-15
8.2,8.328745333333331e-15
8.3,7.393993733333333e-15
8.4,5.857073499999999e-15
8.5,4.1660287666666665e-15
8.600000000000001,2.7758636666666665e-15
8.7,1.9841642666666666e-15
8.799999999999999,1.9178314666666666e-15
8.900000000000002,2.476530666666666e-15
9.0,3.3457386666666663e-15
9.1,4.172903e-15
9.199999999999998,4.680115166666667e-15
9.3,4.678853133333333e-15
9.4,4.141734933333333e-15
9.5,3.2392414666666666e-15
9.600000000000001,2.2374863e-15
9.699999999999998,1.3966859333333331e-15
9.8,9.223246333333333e-16
9.9,8.973068333333333e-16
10.000000000000002,1.252582e-15
10.099999999999998,1.824364e-15
10.2,2.409918666666667e-15
10.300000000000002,2.808954e-15
10.399999999999999,2.8935596666666668e-15
10.499999999999998,2.650217e-15
10.599999999999998,2.158566333333333e-15
10.7,1.5619012666666666e-15
10.799999999999999,1.0295545000000001e-15
10.899999999999999,6.941305666666667e-16
11.0,6.144081999999999e-16
11.1,7.785505e-16
11.199999999999998,1.1083697666666668e-15
11.3,1.4803363333333331e-15
11.399999999999999,1.7745546666666666e-15
11.5,1.907526e-15
11.6,1.843376e-15
11.700000000000001,1.6080791999999998e-15
11.799999999999999,1.2791027666666666e-15
11.9,9.458321633333334e-16
12.0,6.85896888e-16
12.100000000000001,5.55754e-16
12.199999999999998,5.701296333333333e-16
12.3,6.986261666666667e-16
12.4,8.878814e-16
12.5,1.075609233333333e-15
12.6,1.2021756666666664e-15
12.7,1.2356546666666663e-15
12.8,1.1780195e-15
12.9,1.0490800333333332e-15
13.0,8.822170999999999e-16
13.1,7.217176333333332e-16
13.2,6.023011666666666e-16
13.3,5.398799333333334e-16
13.400000000000002,5.380809633333332e-16
13.5,5.845220366666666e-16
13.6,6.516260333333334e-16
13.700000000000001,7.164397333333333e-16
13.800000000000002,7.660857e-16
13.900000000000002,7.879290999999999e-16
14.0,7.761606000000001e-16
14.100000000000001,7.393074333333333e-16
14.199999999999998,6.875284666666665e-16
14.300000000000002,6.281801666666666e-16
14.4,5.726375666666667e-16
14.500000000000002,5.279296999999999e-16
14.599999999999998,4.911305333333333e-16
14.699999999999996,4.641849e-16
14.800000000000002,4.544616533333332e-16
14.900000000000002,4.592421e-16
15.000000000000002,4.713204e-16
15.099999999999996,4.911152e-16
15.2,5.162862666666666e-16
15.300000000000002,5.371279666666667e-16
15.400000000000002,5.481907333333333e-16
15.499999999999996,5.455728666666667e-16
15.6,5.207417999999998e-16
15.699999999999998,4.748093666666667e-16
15.800000000000002,4.214762666666666e-16
15.899999999999997,3.6884129999999996e-16
16.0,3.206556966666666e-16
16.099999999999998,2.902299466666666e-16
16.2,2.887913666666666e-16
16.300000000000004,3.1240309999999994e-16
16.4,3.5283276666666667e-16
16.499999999999996,4.015841e-16
16.6,4.421497666666666e-16
16.7,4.605412333333333e-16
16.8,4.552350666666666e-16
16.9,4.251040333333333e-16
17.0,3.6866366666666656e-16
17.099999999999998,3.0023606666666666e-16
17.200000000000003,2.4190886e-16
17.3,2.0358662999999999e-16
17.4,1.8869273e-16
17.5,2.0253686666666662e-16
17.599999999999998,2.4086846666666665e-16
17.7,2.8918486666666668e-16
17.800000000000004,3.353618999999999e-16
17.9,3.6733156666666663e-16
18.0,3.7064963333333337e-16
18.1,3.432835e-16
18.2,2.966041e-16
18.3,2.389440333333333e-16
18.399999999999995,1.7732683333333335e-16
18.5,1.2784090999999998e-16
18.6,1.0416978999999999e-16
18.7,1.0660764666666667e-16
18.8,1.3072196666666666e-16
18.9,1.703909333333333e-16
19.0,2.1206866666666662e-16
19.099999999999998,2.427668333333333e-16
19.200000000000003,2.5752198999999993e-16
19.3,2.5167605666666667e-16
19.399999999999995,2.2146519666666667e-16
19.5,1.7528441666666667e-16
19.6,1.2776699999999998e-16
19.7,8.690948333333332e-17
19.8,5.827167666666666e-17
19.9,4.923779229999999e-17
20.000000000000004,6.045125666666666e-17
20.1,8.565750333333332e-17
20.199999999999996,1.1917517999999998e-16
20.3,1.5290750333333332e-16
20.4,1.7527000666666668e-16
20.5,1.8192675333333333e-16
20.600000000000005,1.7612481333333332e-16
20.7,1.5862604999999997e-16
20.799999999999997,1.3085742e-16
20.900000000000002,1.020306e-16
20.999999999999996,8.111645999999998e-17
21.1,7.074954666666667e-17
21.199999999999996,7.286858666666665e-17
21.3,8.799790666666667e-17
21.4,1.1038182999999998e-16
21.5,1.3445483333333332e-16
21.599999999999998,1.5853683333333332e-16
21.7,1.7728279999999998e-16
21.799999999999997,1.8355536666666668e-16
21.9,1.7888639999999997e-16
22.0,1.6921073333333334e-16
22.1,1.5575816666666667e-16
22.2,1.4021656666666663e-16
22.3,1.2879619666666663e-16
22.399999999999995,1.2480189333333334e-16
22.5,1.2785637999999998e-16
22.6,1.3902741e-16
22.7,1.567218433333333e-16
22.799999999999997,1.7443563333333334e-16
22.899999999999995,1.8945496666666664e-16
23.0,2.0312173333333333e-16
23.100000000000005,2.119238333333333e-16
23.2,2.1115509999999996e-16
23.3,2.0377443333333333e-16
23.400000000000002,1.94613e-16
23.5,1.8387869999999998e-16
23.599999999999998,1.7282099333333332e-16
23.699999999999996,1.6536571000000002e-16
23.8,1.6221131999999999e-16
23.899999999999995,1.6284187999999998e-16
24.0,1.6896327333333332e-16
24.099999999999994,1.7898290666666664e-16
24.200000000000003,1.875473733333333e-16
24.3,1.938026e-16
24.399999999999995,1.997287e-16
24.500000000000004,2.0243696666666669e-16
24.6,1.9847096666666664e-16
24.699999999999996,1.9031383333333331e-16
24.8,1.8096265666666667e-16
24.9,1.7015540666666667e-16
25.0,1.5912454333333334e-16
25.099999999999998,1.5043907333333331e-16
25.2,1.4392561333333334e-16
25.300000000000004,1.3963056666666668e-16
25.4,1.3949770999999997e-16
25.499999999999996,1.421823133333333e-16
25.6,1.4375544333333333e-16
25.7,1.441611733333333e-16
25.8,1.4491052333333333e-16
25.9,1.4371619333333332e-16
26.0,1.3835395e-16
26.099999999999998,1.3058478666666664e-16
26.2,1.2199196666666667e-16
26.299999999999997,1.1239109999999999e-16
26.4,1.0300886666666665e-16
26.499999999999996,9.532986333333333e-17
26.6,8.883001e-17
26.7,8.382595333333333e-17
26.800000000000004,8.183822999999999e-17
26.899999999999995,8.172678666666666e-17
27.0,8.094860999999999e-17
27.1,7.972756e-17
27.2,7.890096e-17
27.299999999999997,7.697499999999998e-17
27.400000000000002,7.291055666666666e-17
27.5,6.77844e-17
27.600000000000005,6.218043666666666e-17
27.7,5.612078666666666e-17
27.800000000000004,5.066031666666666e-17
27.900000000000002,4.640446333333333e-17
28.0,4.27362e-17
28.099999999999998,4.004595e-17
28.200000000000003,3.9276403333333334e-17
28.3,3.957178666666666e-17
28.399999999999995,3.959085999999999e-17
28.5,3.9594426666666664e-17
28.600000000000005,3.982528666666667e-17
28.700000000000003,3.948923e-17
28.8,3.836063666666667e-17
28.899999999999995,3.688543333333333e-17
29.000000000000004,3.498664333333333e-17
29.1,3.2849039999999994e-17
29.199999999999996,3.1286276666666664e-17
29.299999999999997,3.037036999999999e-17
29.39999999999999,2.9636799999999996e-17
29.499999999999996,2.9524966666666663e-17
29.600000000000005,3.053798666666666e-17
29.699999999999996,3.217099333333333e-17
29.800000000000004,3.397476e-17
29.9,3.6104899999999997e-17
30.000000000000004,3.834045666666666e-17
30.099999999999998,4.0333643333333325e-17
30.199999999999992,4.2238673333333335e-17
30.299999999999997,4.3961643333333324e-17
30.4,4.501327666666666e-17
30.5,4.562846333333333e-17
30.600000000000005,4.635824e-17
30.700000000000006,4.7004600000000003e-17
30.800000000000004,4.7327653333333334e-17
30.9,4.779135333333332e-17
30.999999999999993,4.8646443333333326e-17
31.099999999999998,4.9739913333333326e-17
31.2,5.1237426666666663e-17
31.3,5.3237449999999994e-17
31.399999999999995,5.5325363333333334e-17
31.5,5.749061666666666e-17
31.600000000000005,6.009139e-17
31.7,6.273777666666667e-17
31.799999999999994,6.475851666666667e-17
31.900000000000002,6.637276999999999e-17
32.0,6.789887666666666e-17
32.1,6.895287666666667e-17
32.199999999999996,6.934429333333333e-17
32.300000000000004,6.943678666666667e-17
32.4,6.930462666666666e-17
32.5,6.895074999999999e-17
32.60000000000001,6.878773e-17
32.70000000000001,6.891889333333332e-17
32.8,6.898673e-17
32.9,6.922956e-17
32.99999999999999,7.014808333333334e-17
33.1,7.137865e-17
33.2,7.234003e-17
33.300000000000004,7.327718999999999e-17
33.4,7.441232666666666e-17
33.5,7.530488333333333e-17
33.6,7.570592333333333e-17
33.7,7.582093333333333e-17
33.8,7.560398e-17
33.89999999999999,7.499106333333333e-17
34.0,7.427356666666666e-17
34.1,7.351502000000001e-17
34.199999999999996,7.246791e-17
34.29999999999999,7.139008666666666e-17
34.400000000000006,7.073711999999999e-17
34.50000000000001,7.03042e-17
34.6,6.972865666666666e-17
34.7,6.926740333333333e-17
34.8,6.913888333333334e-17
34.9,6.901598e-17
35.0,6.866136999999999e-17
35.099999999999994,6.820426666666668e-17
35.199999999999996,6.761242333333333e-17
35.3,6.675079999999999e-17
35.4,6.569811e-17
35.50000000000001,6.449343333333332e-17
35.60000000000001,6.300501333333332e-17
35.7,6.136005666666666e-17
35.8,5.982733999999999e-17
35.89999999999999,5.833784333333333e-17
36.0,5.670913e-17
36.1,5.512709666666666e-17
36.2,5.378922666666665e-17
36.3,5.2522956666666665e-17
36.4,5.114282666666666e-17
36.5,4.976240333333333e-17
36.6,4.8442233333333336e-17
36.70000000000001,4.704253e-17
36.79999999999999,4.549829666666666e-17
36.89999999999999,4.388427e-17
37.0,4.219573666666667e-17
37.099999999999994,4.04281e-17
37.2,3.867579666666666e-17
37.300000000000004,3.697057666666667e-17
37.4,3.523384333333333e-17
37.49999999999999,3.3546719999999997e-17
37.6,3.207162e-17
37.7,3.0732870000000003e-17
37.8,2.935065e-17
37.9,2.803075666666667e-17
38.0,2.6927636666666665e-17
38.1,2.5887486666666663e-17
38.199999999999996,2.4731086666666662e-17
38.29999999999999,2.359562333333333e-17
38.400000000000006,2.259404333333333e-17
38.5,2.1609773333333332e-17
38.6,2.0608996666666666e-17
38.699999999999996,1.9714589999999997e-17
38.79999999999999,1.8916359666666664e-17
38.9,1.8202726666666667e-17
39.0,1.7709943333333333e-17
39.099999999999994,1.7419886666666664e-17
39.2,1.713071e-17
39.3,1.69362e-17
39.4,1.705543e-17
39.5,1.7294750000000004e-17
39.6,1.736718666666666e-17
39.7,1.7457116666666663e-17
39.8,1.7758429999999997e-17
39.89999999999999,1.8050276666666668e-17
40.00000000000001,1.8196153333333334e-17
40.10000000000001,1.8398503333333332e-17
40.2,1.8710686666666663e-17
40.3,1.9056759999999997e-17
40.39999999999999,1.956038e-17
40.5,2.027328e-17
40.6,2.1015266666666666e-17
40.699999999999996,2.1882800000000002e-17
40.8,2.3135073333333335e-17
40.9,2.4568039999999996e-17
41.0,2.5841933333333332e-17
41.1,2.715076666666666e-17
41.20000000000001,2.8698796666666664e-17
41.300000000000004,3.017494333333333e-17
41.4,3.135453e-17
41.49999999999999,3.244147666666667e-17
41.599999999999994,3.3483493333333337e-17
41.7,3.434237333333333e-17
41.800000000000004,3.5115826666666664e-17
41.9,3.589190333333333e-17
41.99999999999999,3.6529626666666665e-17
42.1,3.715687666666666e-17
42.2,3.8079153333333326e-17
42.3,3.914693333333333e-17
42.39999999999999,4.007702666666666e-17
42.5,4.1108163333333335e-17
42.6,4.245916666666666e-17
42.7,4.3818773333333335e-17
42.8,4.496118333333333e-17
42.900000000000006,4.6056243333333335e-17
43.0,4.708842333333334e-17
43.099999999999994,4.7872686666666665e-17
43.199999999999996,4.846642333333333e-17
43.29999999999999,4.889340666666667e-17
43.4,4.896761333333333e-17
43.5,4.881619333333333e-17
43.599999999999994,4.874542e-17
43.7,4.861187e-17
43.8,4.818624333333333e-17
43.9,4.7768243333333327e-17
44.0,4.7610966666666664e-17
44.1,4.746719333333333e-17
44.2,4.7201146666666665e-17
44.3,4.700780333333333e-17
44.4,4.685935e-17
44.49999999999999,4.6610276666666673e-17
44.6,4.634959e-17
44.7,4.604259333333333e-17
44.79999999999999,4.544317666666666e-17
44.89999999999999,4.468383e-17
45.0,4.405463666666666e-17
45.10000000000001,4.3345586666666664e-17
45.2,4.2301383333333335e-17
45.3,4.123732333333333e-17
45.4,4.039806333333332e-17
45.5,3.953102333333334e-17
45.599999999999994,3.853334666666666e-17
45.70000000000001,3.7618589999999997e-17
45.79999999999999,3.6757396666666666e-17
45.9,3.5835456666666665e-17
46.0,3.4976959999999996e-17
46.099999999999994,3.4133126666666664e-17
46.20000000000001,3.3045119999999993e-17
46.300000000000004,3.1871076666666665e-17
46.4,3.0907039999999996e-17
46.49999999999999,2.9913656666666663e-17
46.6,2.863156333333333e-17
46.70000000000001,2.739420333333333e-17
46.800000000000004,2.644204e-17
46.9,2.5513606666666665e-17
47.0,2.4518083333333332e-17
47.099999999999994,2.3673729999999998e-17
47.199999999999996,2.2942843333333333e-17
47.29999999999999,2.2211763333333328e-17
47.39999999999999,2.160108333333333e-17
47.5,2.104011333333333e-17
47.6,2.025651333333333e-17
47.699999999999996,1.9402647e-17
47.79999999999999,1.8752183666666667e-17
47.900000000000006,1.8048116333333333e-17
48.0,1.7042569e-17
48.099999999999994,1.607566833333333e-17
48.19999999999999,1.5381523999999998e-17
48.3,1.4722096e-17
48.400000000000006,1.4050207666666666e-17
48.5,1.3595876666666665e-17
48.6,1.3322574666666667e-17
48.7,1.3147609666666665e-17
48.79999999999999,1.3210938666666666e-17
48.89999999999999,1.3411141333333332e-17
49.00000000000001,1.3444267666666665e-17
49.1,1.3456431333333332e-17
49.2,1.3692404666666666e-17
49.3,1.3835047666666666e-17
49.39999999999999,1.3601309333333333e-17
49.50000000000001,1.3327762333333332e-17
49.6,1.3238130333333331e-17
49.7,1.3085615666666666e-17
49.8,1.2848728999999997e-17
49.899999999999984,1.2800720333333332e-17
50.0,1.2942880333333334e-17
50.1,1.3238064666666665e-17
50.199999999999996,1.3876206666666663e-17
50.300000000000004,1.4775466666666663e-17
50.4,1.5628823333333333e-17
50.49999999999999,1.6588365999999998e-17
50.60000000000001,1.7883164666666665e-17
50.7,1.9114227333333333e-17
50.8,1.9904885e-17
50.9,2.0551886e-17
50.99999999999999,2.1237098333333333e-17
51.1,2.1610545666666664e-17
51.2,2.1576764666666665e-17
51.3,2.1444937999999996e-17
51.4,2.1272665999999997e-17
51.50000000000001,2.1023603999999998e-17
51.6,2.0926849666666663e-17
51.7,2.1033961e-17
51.8,2.1160633e-17
51.89999999999999,2.1513656333333332e-17
52.0,2.2378759666666665e-17
52.099999999999994,2.3421538666666667e-17
52.199999999999996,2.4275637333333332e-17
52.300000000000004,2.5210234999999998e-17
52.4,2.6367462666666663e-17
52.50000000000001,2.7296102999999998e-17
52.599999999999994,2.7765667e-17
52.7,2.801697633333333e-17
52.8,2.8061291e-17
52.9,2.7737554999999995e-17
52.99999999999999,2.7177422e-17
53.1,2.6490030666666663e-17
53.2,2.5581674999999998e-17
53.3,2.466124133333333e-17
53.4,2.4058404999999997e-17
53.49999999999999,2.3610476666666667e-17
53.60000000000001,2.310226333333333e-17
53.7,2.285454e-17
53.79999999999999,2.3067773333333332e-17
53.89999999999999,2.3372986666666663e-17
54.0,2.355592e-17
54.10000000000001,2.3820426666666662e-17
54.2,2.4137219999999998e-17
54.3,2.426084e-17
54.4,2.420384e-17
54.5,2.4004379999999996e-17
54.599999999999994,2.3520979999999997e-17
54.70000000000001,2.286602333333333e-17
54.800000000000004,2.2296656666666665e-17
54.9,2.1681183333333332e-17
55.0,2.085801333333333e-17
55.099999999999994,2.0158406666666668e-17
55.20000000000001,1.9823451333333333e-17
55.300000000000004,1.9582194666666666e-17
55.4,1.9299825666666663e-17
55.49999999999999,1.9220511333333335e-17
55.60000000000001,1.9354108333333333e-17
55.7,1.9478449999999997e-17
55.800000000000004,1.9594350666666666e-17
55.9,1.9718537333333333e-17
56.0,1.9679876666666664e-17
56.1,1.9533617333333334e-17
56.199999999999996,1.947759633333333e-17
56.29999999999999,1.9341220666666665e-17
56.400000000000006,1.8930817999999998e-17
56.5,1.855712433333333e-17
56.6,1.8462545e-17
56.699999999999996,1.8374059666666667e-17
56.79999999999999,1.8160413999999997e-17
56.900000000000006,1.8113697666666665e-17
57.0,1.829316e-17
57.099999999999994,1.8465384666666664e-17
57.20000000000001,1.8619059666666665e-17
57.3,1.881421e-17
57.400000000000006,1.8898816666666667e-17
57.500000000000014,1.8877386666666664e-17
57.6,1.891419e-17
57.699999999999996,1.8849063333333333e-17
57.79999999999999,1.8477256666666665e-17
57.899999999999984,1.8090036666666665e-17
58.00000000000001,1.7944629999999997e-17
58.1,1.7770989999999998e-17
58.2,1.7430636666666667e-17
58.3,1.7273659999999996e-17
58.39999999999999,1.7426433333333335e-17
58.5,1.7625113333333334e-17
58.599999999999994,1.782571333333333e-17
58.69999999999999,1.8158409999999996e-17
58.79999999999998,1.8506946333333333e-17
58.9,1.8778981e-17
58.99999999999999,1.9066092e-17
59.1,1.9234597e-17
59.20000000000001,1.9063081999999998e-17
59.300000000000004,1.8759076999999995e-17
59.39999999999999,1.8554083333333332e-17
59.499999999999986,1.8196406666666665e-17
