# O(3P)+CO2(000; j=0) -> O(3P)+CO2(000; j') scattering, statistically averaged (3A2+3B2+3B1) potential energy surfaces
# Differential cross sections; packaged by M. Gacesa (marko.gacesa@nasa.gov), Apr 30 2019
# E = 0.15374 eV
# theta(deg)     elastic DCS (cm^2)
0.0,8.908420666666667e-11
0.1,8.260763e-11
0.2,6.681044333333333e-11
0.30000000000000004,4.876182666666666e-11
0.4,3.3223839999999996e-11
0.5,2.1572956666666664e-11
0.6000000000000001,1.3554389999999999e-11
0.6999999999999998,8.421726666666667e-12
0.8,5.293798666666667e-12
0.9,3.4300393333333327e-12
1.0,2.3444066666666665e-12
1.0999999999999999,1.7176989999999997e-12
1.2000000000000002,1.3399783333333335e-12
1.2999999999999998,1.1026849e-12
1.3999999999999997,9.513815999999998e-13
1.5,8.442947e-13
1.6,7.549379999999999e-13
1.7,6.727117e-13
1.8,5.910224333333334e-13
1.9,5.076709666666666e-13
2.0,4.273827666666666e-13
2.1,3.546057666666666e-13
2.1999999999999997,2.9107763333333334e-13
2.2999999999999994,2.398297333333333e-13
2.4000000000000004,2.0335126666666668e-13
2.5000000000000004,1.7989879999999998e-13
2.5999999999999996,1.6572438333333331e-13
2.6999999999999997,1.5746749333333331e-13
2.7999999999999994,1.5137306666666666e-13
2.9,1.4395720666666666e-13
3.0,1.3360669999999999e-13
3.1,1.1998357333333333e-13
3.2,1.0344323333333332e-13
3.3,8.568826333333333e-14
3.4,6.915482333333332e-14
3.5,5.554687666666666e-14
3.6,4.574947e-14
3.7000000000000006,4.01681e-14
3.8,3.8341186666666665e-14
3.9,3.896988666666666e-14
4.0,4.0567650000000004e-14
4.1,4.1734563333333335e-14
4.2,4.131273e-14
4.300000000000001,3.880982666666667e-14
4.3999999999999995,3.445975333333333e-14
4.5,2.8896166666666664e-14
4.599999999999999,2.3020574666666667e-14
4.7,1.787778133333333e-14
4.800000000000001,1.4294489666666668e-14
4.9,1.2672368666666666e-14
5.000000000000001,1.3005146333333334e-14
5.1,1.4857433333333334e-14
5.199999999999999,1.7452683333333334e-14
5.299999999999999,1.9951513333333332e-14
5.3999999999999995,2.1634443333333333e-14
5.5,2.198845533333333e-14
5.599999999999999,2.0854301e-14
5.699999999999999,1.8463049999999998e-14
5.8,1.530278133333333e-14
5.8999999999999995,1.2023649e-14
6.0,9.32851e-15
6.099999999999999,7.742994666666666e-15
6.2,7.490842333333333e-15
6.3,8.543499666666665e-15
6.4,1.0619221e-14
6.5,1.3182140666666667e-14
6.6,1.560996e-14
6.700000000000001,1.7363492666666667e-14
6.8,1.8042063e-14
6.900000000000001,1.747479033333333e-14
7.0,1.5794706333333333e-14
7.099999999999999,1.3342363666666665e-14
7.2,1.0559076999999999e-14
7.299999999999999,7.975001666666665e-15
7.400000000000001,6.0981586666666666e-15
7.500000000000001,5.227224333333333e-15
7.6,5.426062333333334e-15
7.700000000000001,6.5868796666666654e-15
7.8,8.415649333333333e-15
7.900000000000001,1.0469671666666666e-14
8.0,1.2301412666666665e-14
8.1,1.3534307666666666e-14
8.2,1.3891466999999999e-14
8.3,1.3294957666666665e-14
8.4,1.1895509333333333e-14
8.5,9.958887e-15
8.600000000000001,7.806743e-15
8.7,5.8288026666666666e-15
8.799999999999999,4.384001666666667e-15
8.900000000000002,3.669777333333333e-15
9.0,3.728219333333333e-15
9.1,4.481992666666666e-15
9.199999999999998,5.7146313333333334e-15
9.3,7.118929666666666e-15
9.4,8.398206333333332e-15
9.5,9.291682666666667e-15
9.600000000000001,9.597758333333333e-15
9.699999999999998,9.262919566666666e-15
9.8,8.390421333333333e-15
9.9,7.148302733333333e-15
10.000000000000002,5.7436797999999995e-15
10.099999999999998,4.437947466666666e-15
10.2,3.4689301e-15
10.300000000000002,2.9672871333333332e-15
10.399999999999999,2.9697326333333335e-15
10.499999999999998,3.4318731999999997e-15
10.599999999999998,4.2099242e-15
10.7,5.106421066666666e-15
10.799999999999999,5.935571633333333e-15
10.899999999999999,6.5242843666666655e-15
11.0,6.7324005e-15
11.1,6.524464499999999e-15
11.199999999999998,5.9687558e-15
11.3,5.169467066666665e-15
11.399999999999999,4.258688099999999e-15
11.5,3.409606733333333e-15
11.6,2.7783971333333334e-15
11.700000000000001,2.4512221666666663e-15
11.799999999999999,2.45685e-15
11.9,2.7681591666666664e-15
12.0,3.2875305999999995e-15
12.100000000000001,3.884387433333333e-15
12.199999999999998,4.437153933333333e-15
12.3,4.8262781999999995e-15
12.4,4.951489433333333e-15
12.5,4.786968033333333e-15
12.6,4.377714899999999e-15
12.7,3.791352466666666e-15
12.8,3.1175290333333327e-15
12.9,2.4783486333333333e-15
13.0,1.985596033333333e-15
13.1,1.7047202333333331e-15
13.2,1.6637815666666664e-15
13.3,1.8507663666666664e-15
13.400000000000002,2.2017165666666663e-15
13.5,2.6278071666666664e-15
13.6,3.0429057e-15
13.700000000000001,3.3568829666666664e-15
13.800000000000002,3.489983266666667e-15
13.900000000000002,3.414155266666666e-15
14.0,3.151017133333333e-15
14.100000000000001,2.7396524999999998e-15
14.199999999999998,2.2390743e-15
14.300000000000002,1.7365275666666666e-15
14.4,1.3167304000000001e-15
14.500000000000002,1.0358285333333333e-15
14.599999999999998,9.262381666666666e-16
14.699999999999996,9.923424999999998e-16
14.800000000000002,1.1998218666666666e-15
14.900000000000002,1.4927782333333332e-15
15.000000000000002,1.8116703999999996e-15
15.099999999999996,2.088255233333333e-15
15.2,2.2566237666666664e-15
15.300000000000002,2.2841594333333335e-15
15.400000000000002,2.1722549333333334e-15
15.499999999999996,1.9355266e-15
15.6,1.6058187333333333e-15
15.699999999999998,1.2407455e-15
15.800000000000002,9.026657999999999e-16
15.899999999999997,6.383416333333334e-16
16.0,4.811947e-16
16.099999999999998,4.482925666666666e-16
16.2,5.300727999999999e-16
16.300000000000004,6.979292333333334e-16
16.4,9.156550666666665e-16
16.499999999999996,1.1367486333333334e-15
16.6,1.3111991333333332e-15
16.7,1.4068532666666666e-15
16.8,1.4125405333333333e-15
16.9,1.3258573999999999e-15
17.0,1.1572128e-15
17.099999999999998,9.385267666666665e-16
17.200000000000003,7.104548666666666e-16
17.3,5.067466666666666e-16
17.4,3.5518458666666666e-16
17.5,2.770156033333333e-16
17.599999999999998,2.778316666666666e-16
17.7,3.4791794e-16
17.800000000000004,4.692526666666666e-16
17.9,6.152233999999999e-16
18.0,7.533960999999999e-16
18.1,8.580076666666667e-16
18.2,9.142664e-16
18.3,9.124733333333331e-16
18.399999999999995,8.509028666666665e-16
18.5,7.431863666666667e-16
18.6,6.1197683333333325e-16
18.7,4.779740666666666e-16
18.8,3.601167066666666e-16
18.9,2.7694197e-16
19.0,2.3966254666666664e-16
19.099999999999998,2.4853509666666665e-16
19.200000000000003,2.9684042999999993e-16
19.3,3.7250049999999995e-16
19.399999999999995,4.581412000000001e-16
19.5,5.364343333333333e-16
19.6,5.943724e-16
19.7,6.218637333333334e-16
19.8,6.130297e-16
19.9,5.709512999999999e-16
20.000000000000004,5.056937666666666e-16
20.1,4.279213333333333e-16
20.199999999999996,3.484893e-16
20.3,2.8024836666666663e-16
20.4,2.337888666666666e-16
20.5,2.1301786666666666e-16
20.600000000000005,2.1703791666666667e-16
20.7,2.424256233333333e-16
20.799999999999997,2.8218369333333334e-16
20.900000000000002,3.266973e-16
20.999999999999996,3.670756e-16
21.1,3.961054333333333e-16
21.199999999999996,4.083496e-16
21.3,4.022914999999999e-16
21.4,3.806306e-16
21.5,3.4745370000000003e-16
21.599999999999998,3.074970666666666e-16
21.7,2.6748816666666664e-16
21.799999999999997,2.341876e-16
21.9,2.1103506666666662e-16
22.0,1.9880549999999997e-16
22.1,1.9762353333333333e-16
22.2,2.0591131999999996e-16
22.3,2.195577533333333e-16
22.399999999999995,2.3407302999999997e-16
22.5,2.4610605e-16
22.6,2.5290689666666664e-16
22.7,2.5281493e-16
22.799999999999997,2.461968333333333e-16
22.899999999999995,2.3445053333333333e-16
23.0,2.1915876666666664e-16
23.100000000000005,2.0293386666666664e-16
23.2,1.8883826666666666e-16
23.3,1.782560333333333e-16
23.400000000000002,1.7109356666666663e-16
23.5,1.6750369999999998e-16
23.599999999999998,1.672390333333333e-16
23.699999999999996,1.6841506666666665e-16
23.8,1.6889331999999996e-16
23.899999999999995,1.6779013e-16
24.0,1.6470382333333333e-16
24.099999999999994,1.5929349986666666e-16
24.200000000000003,1.5216338200000001e-16
24.3,1.4462185666666665e-16
24.399999999999995,1.3771888e-16
24.500000000000004,1.3256183e-16
24.6,1.3033746e-16
24.699999999999996,1.3106115666666666e-16
24.8,1.3359334e-16
24.9,1.3705238e-16
25.0,1.4061987666666664e-16
25.099999999999998,1.4255756333333332e-16
25.2,1.4121987999999998e-16
25.300000000000004,1.3641723999999996e-16
25.4,1.2873975666666663e-16
25.499999999999996,1.1887697999999997e-16
25.6,1.0827846999999999e-16
25.7,9.907426e-17
25.8,9.303499666666666e-17
25.9,9.150097333333333e-17
26.0,9.546675333333333e-17
26.099999999999998,1.0466732333333333e-16
26.2,1.1746469666666667e-16
26.299999999999997,1.3201661333333333e-16
26.4,1.4634631666666667e-16
26.499999999999996,1.5767220666666665e-16
26.6,1.6336866333333333e-16
26.7,1.6236657666666666e-16
26.800000000000004,1.5475368666666664e-16
26.899999999999995,1.4118400666666667e-16
27.0,1.235045e-16
27.1,1.0477655333333331e-16
27.2,8.819090333333333e-17
27.299999999999997,7.669155666666666e-17
27.400000000000002,7.289379e-17
27.5,7.810547333333332e-17
27.600000000000005,9.189090666666666e-17
27.7,1.1289703666666665e-16
27.800000000000004,1.3889764666666667e-16
27.900000000000002,1.6614266333333332e-16
28.0,1.9028164333333332e-16
28.099999999999998,2.0799724333333334e-16
28.200000000000003,2.1696899999999996e-16
28.3,2.1545835333333326e-16
28.399999999999995,2.0325846666666662e-16
28.5,1.8230005e-16
28.600000000000005,1.557522733333333e-16
28.700000000000003,1.2738863333333332e-16
28.8,1.0155962333333331e-16
28.899999999999995,8.239205666666667e-17
29.000000000000004,7.283575133333334e-17
29.1,7.468595666666668e-17
29.199999999999996,8.839505999999999e-17
29.299999999999997,1.1231120666666667e-16
29.39999999999999,1.4303816666666665e-16
29.499999999999996,1.7669523e-16
29.600000000000005,2.0912156999999997e-16
29.699999999999996,2.3572254999999995e-16
29.800000000000004,2.525966333333333e-16
29.9,2.577047666666666e-16
30.000000000000004,2.5061966666666665e-16
30.099999999999998,2.32185e-16
30.199999999999992,2.0488329999999996e-16
30.299999999999997,1.7263346666666667e-16
30.4,1.3984096666666669e-16
30.5,1.1088282333333332e-16
30.600000000000005,8.974091999999999e-17
30.700000000000006,7.917645966666666e-17
30.800000000000004,8.030491333333334e-17
30.9,9.289236333333333e-17
30.999999999999993,1.1531020999999998e-16
31.099999999999998,1.4432829999999996e-16
31.2,1.7580506666666666e-16
31.3,2.0568473333333332e-16
31.399999999999995,2.302321666666666e-16
31.5,2.4620836666666663e-16
31.600000000000005,2.515969333333333e-16
31.7,2.4601013333333334e-16
31.799999999999994,2.304105333333333e-16
31.900000000000002,2.0692303333333335e-16
32.0,1.7870906666666664e-16
32.1,1.494096e-16
32.199999999999996,1.22562e-16
32.300000000000004,1.0135456333333332e-16
32.4,8.821064999999999e-17
32.5,8.426643566666667e-17
32.60000000000001,8.938194666666667e-17
32.70000000000001,1.0245102e-16
32.8,1.2142123333333334e-16
32.9,1.4343033333333332e-16
32.99999999999999,1.6538553333333329e-16
33.1,1.8445309999999998e-16
33.2,1.9823899999999998e-16
33.300000000000004,2.0508639999999998e-16
33.4,2.0435156666666664e-16
33.5,1.9632746666666668e-16
33.6,1.8211176666666663e-16
33.7,1.6359446666666666e-16
33.8,1.4314216666666664e-16
33.89999999999999,1.2308806666666664e-16
34.0,1.0553884666666666e-16
34.1,9.230617999999999e-17
34.199999999999996,8.456478333333332e-17
34.29999999999999,8.262944266666665e-17
34.400000000000006,8.611726666666667e-17
34.50000000000001,9.408614666666666e-17
34.6,1.0505645333333331e-16
34.7,1.1727643333333334e-16
34.8,1.2903479999999997e-16
34.9,1.3873796666666665e-16
35.0,1.4506983333333335e-16
35.099999999999994,1.4732859999999998e-16
35.199999999999996,1.4541896666666666e-16
35.3,1.3959183333333334e-16
35.4,1.3049183333333333e-16
35.50000000000001,1.1928263333333332e-16
35.60000000000001,1.0731365999999997e-16
35.7,9.574842666666666e-17
35.8,8.560829666666666e-17
35.89999999999999,7.780002333333333e-17
36.0,7.284485433333333e-17
36.1,7.078637233333334e-17
36.2,7.135849966666665e-17
36.3,7.402711666666667e-17
36.4,7.798425e-17
36.5,8.235693999999999e-17
36.6,8.634826333333333e-17
36.70000000000001,8.919651666666667e-17
36.79999999999999,9.029268666666665e-17
36.89999999999999,8.940492333333332e-17
37.0,8.659895e-17
37.099999999999994,8.205887e-17
37.2,7.616585666666666e-17
37.300000000000004,6.955927666666665e-17
37.4,6.291245e-17
37.49999999999999,5.677791333333333e-17
37.6,5.163782e-17
37.7,4.7861525000000005e-17
37.8,4.5579799199999995e-17
37.9,4.4730210666666666e-17
38.0,4.511708633333333e-17
38.1,4.6359833333333335e-17
38.199999999999996,4.795813e-17
38.29999999999999,4.9477563333333333e-17
38.400000000000006,5.0551313333333334e-17
38.5,5.0818489999999994e-17
38.6,5.005302e-17
38.699999999999996,4.8274086666666664e-17
38.79999999999999,4.5634056666666665e-17
38.9,4.235561e-17
39.0,3.878794333333334e-17
39.099999999999994,3.5339753333333327e-17
39.2,3.2355248999999995e-17
39.3,3.014624866666666e-17
39.4,2.8970475966666665e-17
39.5,2.887462536666666e-17
39.6,2.971826333333333e-17
39.7,3.1353236666666664e-17
39.8,3.3562076666666666e-17
39.89999999999999,3.592699333333333e-17
40.00000000000001,3.800592333333333e-17
40.10000000000001,3.9535503333333333e-17
40.2,4.0318606666666666e-17
40.3,4.015453999999999e-17
40.39999999999999,3.900777999999999e-17
40.5,3.704550666666667e-17
40.6,3.4491643333333334e-17
40.699999999999996,3.1641059999999995e-17
40.8,2.8894213333333326e-17
40.9,2.6591756666666666e-17
41.0,2.495561e-17
41.1,2.4237953333333332e-17
41.20000000000001,2.4632360999999997e-17
41.300000000000004,2.6040276666666666e-17
41.4,2.820426333333334e-17
41.49999999999999,3.096139e-17
41.599999999999994,3.409004333333333e-17
41.7,3.7149739999999995e-17
41.800000000000004,3.973645333333333e-17
41.9,4.166564666666666e-17
41.99999999999999,4.279140666666666e-17
42.1,4.297817666666666e-17
42.2,4.228316333333333e-17
42.3,4.089565666666666e-17
42.39999999999999,3.9001756666666664e-17
42.5,3.6916479999999997e-17
42.6,3.506693666666666e-17
42.7,3.369632e-17
42.8,3.290449333333333e-17
42.900000000000006,3.294887e-17
43.0,3.404637333333333e-17
43.099999999999994,3.601128333333333e-17
43.199999999999996,3.852829e-17
43.29999999999999,4.1523156666666666e-17
43.4,4.4865669999999993e-17
43.5,4.811295666666666e-17
43.599999999999994,5.088899333333332e-17
43.7,5.311353999999999e-17
43.8,5.4698593333333334e-17
43.9,5.549322666666666e-17
44.0,5.554657666666665e-17
44.1,5.502939333333333e-17
44.2,5.4053059999999996e-17
44.3,5.285835999999999e-17
44.4,5.181860666666667e-17
44.49999999999999,5.1076679999999996e-17
44.6,5.062441666666666e-17
44.7,5.071006e-17
44.79999999999999,5.158343666666667e-17
44.89999999999999,5.3025753333333323e-17
45.0,5.471330333333333e-17
45.10000000000001,5.669725e-17
45.2,5.898539e-17
45.3,6.116299666666667e-17
45.4,6.288600666666666e-17
45.5,6.420215666666666e-17
45.599999999999994,6.511263333333333e-17
45.70000000000001,6.542407666666667e-17
45.79999999999999,6.513133666666666e-17
45.9,6.441133999999999e-17
46.0,6.334232e-17
46.099999999999994,6.205292666666666e-17
46.20000000000001,6.082194333333332e-17
46.300000000000004,5.975138666666666e-17
46.4,5.879357666666665e-17
46.49999999999999,5.816203e-17
46.6,5.811424666666665e-17
46.70000000000001,5.846129333333333e-17
46.800000000000004,5.892130333333332e-17
46.9,5.963317333333334e-17
47.0,6.070869666666666e-17
47.099999999999994,6.178346666666666e-17
47.199999999999996,6.254643666666666e-17
47.29999999999999,6.312879333333333e-17
47.39999999999999,6.359319333333333e-17
47.5,6.369557e-17
47.6,6.335304333333332e-17
47.699999999999996,6.273621333333332e-17
47.79999999999999,6.189923333333334e-17
47.900000000000006,6.084152e-17
48.0,5.971822666666667e-17
48.099999999999994,5.861184666666666e-17
48.19999999999999,5.746537666666666e-17
48.3,5.641992666666667e-17
48.400000000000006,5.569414333333334e-17
48.5,5.515322e-17
48.6,5.457872e-17
48.7,5.4140750000000004e-17
48.79999999999999,5.400524666666666e-17
48.89999999999999,5.3886193333333334e-17
49.00000000000001,5.3530853333333325e-17
49.1,5.3123799999999995e-17
49.2,5.278163e-17
49.3,5.226161666666666e-17
49.39999999999999,5.144917333333333e-17
49.50000000000001,5.052897666666667e-17
49.6,4.956944666666666e-17
49.7,4.848999666666667e-17
49.8,4.7352263333333334e-17
49.899999999999984,4.6249143333333333e-17
50.0,4.514445e-17
50.1,4.4095979999999995e-17
50.199999999999996,4.324996333333333e-17
50.300000000000004,4.2523046666666665e-17
50.4,4.175137666666666e-17
50.49999999999999,4.106276333333333e-17
50.60000000000001,4.059898666666666e-17
50.7,4.013924e-17
50.8,3.947696333333333e-17
50.9,3.877736333333333e-17
50.99999999999999,3.815522e-17
51.1,3.7391439999999996e-17
51.2,3.6364556666666667e-17
51.3,3.5250169999999994e-17
51.4,3.412945999999999e-17
51.50000000000001,3.2896186666666665e-17
51.6,3.156468e-17
51.7,3.0252963333333334e-17
51.8,2.897327666666666e-17
51.89999999999999,2.7740896666666664e-17
52.0,2.6653276666666664e-17
52.099999999999994,2.5700076666666672e-17
52.199999999999996,2.4799336666666666e-17
52.300000000000004,2.4035199999999994e-17
52.4,2.3509403333333335e-17
52.50000000000001,2.3088363333333332e-17
52.599999999999994,2.2636759999999994e-17
52.7,2.226275333333333e-17
52.8,2.203559666666666e-17
52.9,2.1788750000000002e-17
52.99999999999999,2.1420879999999997e-17
53.1,2.1037506666666665e-17
53.2,2.067303e-17
53.3,2.0227096333333334e-17
53.4,1.9689208666666663e-17
53.49999999999999,1.9128129999999997e-17
53.60000000000001,1.8539858666666665e-17
53.7,1.7925578e-17
53.79999999999999,1.7350055666666666e-17
53.89999999999999,1.6809493666666667e-17
54.0,1.6257540666666663e-17
54.10000000000001,1.5766889333333332e-17
54.2,1.5419780333333332e-17
54.3,1.514026533333333e-17
54.4,1.4860506666666664e-17
54.5,1.4672152999999998e-17
54.599999999999994,1.4626506e-17
54.70000000000001,1.4625431666666666e-17
54.800000000000004,1.462362333333333e-17
54.9,1.4686649666666665e-17
55.0,1.4815823333333333e-17
55.099999999999994,1.4955620666666666e-17
55.20000000000001,1.5116123999999997e-17
55.300000000000004,1.5306435666666666e-17
55.4,1.5481272999999997e-17
55.49999999999999,1.5662127666666665e-17
55.60000000000001,1.5910240666666665e-17
55.7,1.6169544e-17
55.800000000000004,1.6368199666666666e-17
55.9,1.6593021666666667e-17
56.0,1.6921603333333334e-17
56.1,1.7255715999999998e-17
56.199999999999996,1.7530651666666665e-17
56.29999999999999,1.7853753e-17
56.400000000000006,1.8277019333333333e-17
56.5,1.8708806e-17
56.6,1.9125836333333334e-17
56.699999999999996,1.9600047e-17
56.79999999999999,2.0127708666666666e-17
56.900000000000006,2.0673396666666664e-17
57.0,2.1271216666666665e-17
57.099999999999994,2.1913873333333337e-17
57.20000000000001,2.2535323333333333e-17
57.3,2.3182026666666667e-17
57.400000000000006,2.393517333333333e-17
57.500000000000014,2.4698463333333332e-17
57.6,2.5366019999999998e-17
57.699999999999996,2.6057556666666658e-17
57.79999999999999,2.687157333333333e-17
57.899999999999984,2.765569e-17
58.00000000000001,2.8308216666666665e-17
58.1,2.898163e-17
58.2,2.975406e-17
58.3,3.0478033333333334e-17
58.39999999999999,3.109989e-17
58.5,3.174417999999999e-17
58.599999999999994,3.243433e-17
58.69999999999999,3.308788333333333e-17
58.79999999999998,3.372102e-17
58.9,3.4372069999999995e-17
58.99999999999999,3.499214333333334e-17
59.1,3.5598856666666665e-17
59.20000000000001,3.6271316666666666e-17
59.300000000000004,3.6933780000000007e-17
