# O(3P)+CO2(000; j=0) -> O(3P)+CO2(000; j') scattering, statistically averaged (3A2+3B2+3B1) potential energy surfaces
# Differential cross sections; packaged by M. Gacesa (marko.gacesa@nasa.gov), Apr 30 2019
# E = 0.525693 eV
# theta(deg)     elastic DCS (cm^2)
0.0,1.430529e-10
0.1,1.2057504e-10
0.2,7.514660333333333e-11
0.30000000000000004,3.897421666666666e-11
0.4,1.910878666666667e-11
0.5,9.201916666666666e-12
0.6000000000000001,4.5700333333333325e-12
0.6999999999999998,2.5818099999999995e-12
0.8,1.6338553e-12
0.9,1.2190555e-12
1.0,1.1170125666666666e-12
1.0999999999999999,1.0591972666666665e-12
1.2000000000000002,9.600237666666666e-13
1.2999999999999998,8.117349666666666e-13
1.3999999999999997,6.123322666666666e-13
1.5,4.4082423333333334e-13
1.6,3.6205559999999996e-13
1.7,3.545805333333334e-13
1.8,3.7908849999999995e-13
1.9,3.9453666666666666e-13
2.0,3.615991666666667e-13
2.1,2.882314166666667e-13
2.1999999999999997,2.1356713333333326e-13
2.2999999999999994,1.6276653666666667e-13
2.4000000000000004,1.4721005333333333e-13
2.5000000000000004,1.6199846e-13
2.5999999999999996,1.808826933333333e-13
2.6999999999999997,1.8169501999999996e-13
2.7999999999999994,1.6082799e-13
2.9,1.2404389999999997e-13
3.0,8.515126e-14
3.1,6.090557333333334e-14
3.2,5.644011333333333e-14
3.3,6.522510999999999e-14
3.4,7.724197666666666e-14
3.5,8.155809666666666e-14
3.6,7.228963666666666e-14
3.7000000000000006,5.367756666666667e-14
3.8,3.4519358999999996e-14
3.9,2.187461833333333e-14
4.0,1.9276892666666665e-14
4.1,2.4677613666666663e-14
4.2,3.167584866666666e-14
4.300000000000001,3.482027899999999e-14
4.3999999999999995,3.2062598000000004e-14
4.5,2.4423792000000004e-14
4.599999999999999,1.5570325666666668e-14
4.7,9.5425028e-15
4.800000000000001,8.045246333333332e-15
4.9,1.0269217333333332e-14
5.000000000000001,1.3856774999999999e-14
5.1,1.6022081666666668e-14
5.199999999999999,1.5241437e-14
5.299999999999999,1.2001747666666667e-14
5.3999999999999995,7.977949666666666e-15
5.5,5.001907096666666e-15
5.599999999999999,4.170876666666667e-15
5.699999999999999,5.241548999999999e-15
5.8,6.992967e-15
5.8999999999999995,8.122767333333333e-15
6.0,7.859575999999998e-15
6.099999999999999,6.284841333333332e-15
6.2,4.221190666666666e-15
6.3,2.6347685933333332e-15
6.4,2.090546333333333e-15
6.5,2.571786333333333e-15
6.6,3.5518709999999997e-15
6.700000000000001,4.312110666666666e-15
6.8,4.354162e-15
6.900000000000001,3.634986333333333e-15
7.0,2.5153826666666664e-15
7.099999999999999,1.5092755999999998e-15
7.2,1.0087930333333332e-15
7.299999999999999,1.1251638e-15
7.400000000000001,1.652202333333333e-15
7.500000000000001,2.2195226666666664e-15
7.6,2.5358346666666666e-15
7.700000000000001,2.4743016666666664e-15
7.8,2.0629296666666665e-15
7.900000000000001,1.5192478333333333e-15
8.0,1.1157171566666665e-15
8.1,9.653680666666666e-16
8.2,1.0476696403333332e-15
8.3,1.292655033333333e-15
8.4,1.5461699999999996e-15
8.5,1.6832789999999998e-15
8.600000000000001,1.723814133333333e-15
8.7,1.6920785666666664e-15
8.799999999999999,1.5643333333333332e-15
8.900000000000002,1.4063648333333333e-15
9.0,1.2987283e-15
9.1,1.2195259666666665e-15
9.199999999999998,1.1629505533333333e-15
9.3,1.1669005666666665e-15
9.4,1.1994766333333333e-15
9.5,1.2383794666666666e-15
9.600000000000001,1.3211336e-15
9.699999999999998,1.4021386333333333e-15
9.8,1.3827997333333333e-15
9.9,1.2722665333333332e-15
10.000000000000002,1.1212753333333333e-15
10.099999999999998,9.458978999999998e-16
10.2,8.038207066666665e-16
10.300000000000002,7.570263333333334e-16
10.399999999999999,7.805441999999999e-16
10.499999999999998,8.412297333333331e-16
10.599999999999998,9.293449666666666e-16
10.7,9.811455666666667e-16
10.799999999999999,9.324666666666666e-16
10.899999999999999,8.095878333333333e-16
11.0,6.647592666666666e-16
11.1,5.316622666666666e-16
11.199999999999998,4.559762533333332e-16
11.3,4.575437033333333e-16
11.399999999999999,4.977230333333333e-16
11.5,5.413710333333332e-16
11.6,5.722478333333332e-16
11.700000000000001,5.616467333333333e-16
11.799999999999999,4.983327333333333e-16
11.9,4.14145e-16
12.0,3.416574766666666e-16
12.100000000000001,2.9707005033333333e-16
12.199999999999998,2.9056708999999994e-16
12.3,3.1266636666666664e-16
12.4,3.336785666666666e-16
12.5,3.3569156666666667e-16
12.6,3.169192333333333e-16
12.7,2.7897493333333336e-16
12.8,2.311372e-16
12.9,1.931750233333333e-16
13.0,1.7796504e-16
13.1,1.8415426e-16
13.2,2.025579e-16
13.3,2.211708333333333e-16
13.400000000000002,2.259055333333333e-16
13.5,2.1141069999999997e-16
13.6,1.8594836666666663e-16
13.700000000000001,1.5977866666666664e-16
13.800000000000002,1.3725346666666667e-16
13.900000000000002,1.2699003333333332e-16
14.0,1.3629123333333333e-16
14.100000000000001,1.5730676666666667e-16
14.199999999999998,1.7760426666666663e-16
14.300000000000002,1.9375936666666665e-16
14.4,2.0030616666666664e-16
14.500000000000002,1.9450189999999998e-16
14.599999999999998,1.8795676666666666e-16
14.699999999999996,1.8781089999999997e-16
14.800000000000002,1.8705496666666666e-16
14.900000000000002,1.900763333333333e-16
15.000000000000002,2.064503333333333e-16
15.099999999999996,2.2689316666666666e-16
15.2,2.4109766666666666e-16
15.300000000000002,2.5292376666666665e-16
15.400000000000002,2.587019333333333e-16
15.499999999999996,2.5513099999999993e-16
15.6,2.5559136666666665e-16
15.699999999999998,2.632487333333333e-16
15.800000000000002,2.646478e-16
15.899999999999997,2.648341666666666e-16
16.0,2.7542589999999997e-16
16.099999999999998,2.866431333333333e-16
16.2,2.9099256666666667e-16
16.300000000000004,2.947826666666666e-16
16.4,2.925865333333333e-16
16.499999999999996,2.8126789999999997e-16
16.6,2.753643666666666e-16
16.7,2.7552233333333335e-16
16.8,2.6754016666666664e-16
16.9,2.583194e-16
17.0,2.587319666666666e-16
17.099999999999998,2.593825333333333e-16
17.200000000000003,2.5593799999999994e-16
17.3,2.5396583333333336e-16
17.4,2.4597893333333333e-16
17.5,2.3004093333333335e-16
17.599999999999998,2.1984029999999998e-16
17.7,2.1399375333333333e-16
17.800000000000004,2.0067325666666669e-16
17.9,1.8726115333333336e-16
18.0,1.81324e-16
18.1,1.751743433333333e-16
18.2,1.6800811333333335e-16
18.3,1.6355054666666666e-16
18.399999999999995,1.5393754333333332e-16
18.5,1.3923758666666663e-16
18.6,1.3026360666666665e-16
18.7,1.2417729666666664e-16
18.8,1.1334011666666665e-16
18.9,1.0387288333333333e-16
19.0,9.837833666666667e-17
19.099999999999998,9.181603999999999e-17
19.200000000000003,8.676712333333332e-17
19.3,8.452559333333333e-17
19.399999999999995,7.800225666666667e-17
19.5,6.942279999999999e-17
19.6,6.573529e-17
19.7,6.337713666666667e-17
19.8,5.964702e-17
19.9,5.855980999999999e-17
20.000000000000004,5.754566e-17
20.1,5.455082999999999e-17
20.199999999999996,5.499733999999999e-17
20.3,5.758357666666667e-17
20.4,5.627545666666667e-17
20.5,5.510132333333333e-17
20.600000000000005,5.727444666666666e-17
20.7,5.906280333333333e-17
20.799999999999997,6.227718999999999e-17
20.900000000000002,6.878460666666666e-17
20.999999999999996,7.170388999999999e-17
21.1,7.168459e-17
21.199999999999996,7.632897e-17
21.3,8.216313999999999e-17
21.4,8.400358333333333e-17
21.5,8.724726e-17
21.599999999999998,9.253748333333333e-17
21.7,9.626116333333333e-17
21.799999999999997,1.0324424333333332e-16
21.9,1.1360828333333333e-16
22.0,1.1759114e-16
22.1,1.1750803e-16
22.2,1.2209884999999999e-16
22.3,1.2646718666666664e-16
22.399999999999995,1.258504e-16
22.5,1.2654206666666665e-16
22.6,1.2849466666666666e-16
22.7,1.2861189999999999e-16
22.799999999999997,1.328637e-16
22.899999999999995,1.4064373333333333e-16
23.0,1.4169286666666666e-16
23.100000000000005,1.3876706666666666e-16
23.2,1.4006706666666665e-16
23.3,1.4022319999999998e-16
23.400000000000002,1.3485633333333334e-16
23.5,1.3006986666666665e-16
23.599999999999998,1.2601405333333332e-16
23.699999999999996,1.2044388666666665e-16
23.8,1.1895954333333333e-16
23.899999999999995,1.2102174999999997e-16
24.0,1.1816661999999997e-16
24.099999999999994,1.1289030333333332e-16
24.200000000000003,1.1137596e-16
24.3,1.0879521666666667e-16
24.399999999999995,1.0175946e-16
24.500000000000004,9.497693333333334e-17
24.6,8.839283666666667e-17
24.699999999999996,8.072954333333332e-17
24.8,7.643166e-17
24.9,7.498011999999999e-17
25.0,7.062664666666665e-17
25.099999999999998,6.543084333333333e-17
25.2,6.297840666666666e-17
25.300000000000004,5.973764333333334e-17
25.4,5.4124339999999994e-17
25.499999999999996,4.904761333333333e-17
25.6,4.378664333333333e-17
25.7,3.8209676666666666e-17
25.8,3.561843333333333e-17
25.9,3.512708333333333e-17
26.0,3.3447483333333324e-17
26.099999999999998,3.214851e-17
26.2,3.2099509999999996e-17
26.299999999999997,3.110376666666666e-17
26.4,2.9762546666666666e-17
26.499999999999996,2.9237579999999994e-17
26.6,2.7656923333333326e-17
26.7,2.619024666666666e-17
26.800000000000004,2.7767393333333334e-17
26.899999999999995,3.078205999999999e-17
27.0,3.3337063333333335e-17
27.1,3.674738666666666e-17
27.2,3.9825303333333327e-17
27.299999999999997,4.1108915e-17
27.400000000000002,4.2912145e-17
27.5,4.5161747666666665e-17
27.600000000000005,4.4824672333333336e-17
27.7,4.4280642999999994e-17
27.800000000000004,4.706054033333333e-17
27.900000000000002,5.1011253333333325e-17
28.0,5.455213999999999e-17
28.099999999999998,5.921909666666666e-17
28.200000000000003,6.316754333333333e-17
28.3,6.488756666666667e-17
28.399999999999995,6.702911333333332e-17
28.5,6.896012666666666e-17
28.600000000000005,6.714169333333333e-17
28.700000000000003,6.442884333333333e-17
28.8,6.495301333333333e-17
28.899999999999995,6.665845333333334e-17
29.000000000000004,6.801153666666666e-17
29.1,7.096263666666666e-17
29.199999999999996,7.414399333333332e-17
29.299999999999997,7.573576e-17
29.39999999999999,7.754717666666666e-17
29.499999999999996,7.875757999999999e-17
29.600000000000005,7.596113333333332e-17
29.699999999999996,7.149902e-17
29.800000000000004,6.926731666666666e-17
29.9,6.776707e-17
30.000000000000004,6.570689333333332e-17
30.099999999999998,6.530764666666667e-17
30.199999999999992,6.623255333333334e-17
30.299999999999997,6.674390333333333e-17
30.4,6.755325666666666e-17
30.5,6.797392333333333e-17
30.600000000000005,6.533555999999999e-17
30.700000000000006,6.092556666666666e-17
30.800000000000004,5.751895333333333e-17
30.9,5.428121666666666e-17
30.999999999999993,5.0373199999999996e-17
31.099999999999998,4.777654333333333e-17
31.2,4.693993666666666e-17
31.3,4.6630313333333325e-17
31.399999999999995,4.6724900000000003e-17
31.5,4.6770340000000007e-17
31.600000000000005,4.5197723333333336e-17
31.7,4.2312693333333327e-17
31.799999999999994,3.934645333333333e-17
31.900000000000002,3.6138107999999993e-17
32.0,3.2654941e-17
32.1,3.0201624e-17
32.199999999999996,2.9267322333333326e-17
32.300000000000004,2.9419362e-17
32.4,3.0314438999999994e-17
32.5,3.139490033333333e-17
32.60000000000001,3.1781791666666666e-17
32.70000000000001,3.1194458333333327e-17
32.8,2.9521559e-17
32.9,2.693195233333333e-17
32.99999999999999,2.4212839666666664e-17
33.1,2.2085749666666667e-17
33.2,2.072666333333333e-17
33.300000000000004,2.069414333333333e-17
33.4,2.2231523333333336e-17
33.5,2.4599609999999998e-17
33.6,2.7030253333333333e-17
33.7,2.913585333333333e-17
33.8,3.005115333333333e-17
33.89999999999999,2.957086666666667e-17
34.0,2.854426099999999e-17
34.1,2.724210633333333e-17
34.199999999999996,2.543202533333333e-17
34.29999999999999,2.4280227000000002e-17
34.400000000000006,2.4908129666666666e-17
34.50000000000001,2.6734753333333333e-17
34.6,2.8995472e-17
34.7,3.174671133333333e-17
34.8,3.431880866666666e-17
34.9,3.590895033333333e-17
35.0,3.6688963333333333e-17
35.099999999999994,3.6676767e-17
35.199999999999996,3.5376226666666663e-17
35.3,3.368585366666666e-17
35.4,3.299307666666666e-17
35.50000000000001,3.311386333333333e-17
35.60000000000001,3.338835333333333e-17
35.7,3.440621333333333e-17
35.8,3.636597e-17
35.89999999999999,3.828494999999999e-17
36.0,3.951933333333333e-17
36.1,4.022147666666667e-17
36.2,4.020349e-17
36.3,3.949250666666667e-17
36.4,3.8751396666666657e-17
36.5,3.827435666666666e-17
36.6,3.7756643333333336e-17
36.70000000000001,3.7681056666666664e-17
36.79999999999999,3.871726e-17
36.89999999999999,4.026825666666666e-17
37.0,4.131099333333333e-17
37.099999999999994,4.2119196666666664e-17
37.2,4.3070296666666665e-17
37.300000000000004,4.349881666666667e-17
37.4,4.297845e-17
37.49999999999999,4.218351e-17
37.6,4.141908666666666e-17
37.7,4.0588183333333325e-17
37.8,4.009722333333333e-17
37.9,4.012411e-17
38.0,4.000838999999999e-17
38.1,3.988774666666666e-17
38.199999999999996,4.041411e-17
38.29999999999999,4.090863e-17
38.400000000000006,4.033271333333333e-17
38.5,3.933987999999999e-17
38.6,3.858603333333333e-17
38.699999999999996,3.7433239999999995e-17
38.79999999999999,3.5681159e-17
38.9,3.403695766666666e-17
39.0,3.2447809666666666e-17
39.099999999999994,3.083386e-17
39.2,2.981649333333333e-17
39.3,2.922784433333333e-17
39.4,2.8184137e-17
39.5,2.714500633333333e-17
39.6,2.6772414999999992e-17
39.7,2.6270258666666668e-17
39.8,2.4999040666666662e-17
39.89999999999999,2.3613897666666663e-17
40.00000000000001,2.227825633333333e-17
40.10000000000001,2.0683945666666665e-17
40.2,1.9191266333333328e-17
40.3,1.8032618999999996e-17
40.39999999999999,1.6803952e-17
40.5,1.5850664333333333e-17
40.6,1.5690913e-17
40.699999999999996,1.5796469999999997e-17
40.8,1.5635809999999996e-17
40.9,1.554820333333333e-17
41.0,1.5483446666666666e-17
41.1,1.5114522e-17
41.20000000000001,1.4657568999999996e-17
41.300000000000004,1.426700733333333e-17
41.4,1.3738583666666665e-17
41.49999999999999,1.3488598666666666e-17
41.599999999999994,1.393602733333333e-17
41.7,1.4801929799999998e-17
41.800000000000004,1.5926139366666664e-17
41.9,1.7433232383333334e-17
41.99999999999999,1.88630698e-17
42.1,2.000069113333333e-17
42.2,2.1183715000000003e-17
42.3,2.211668566666667e-17
42.39999999999999,2.2273627e-17
42.5,2.234169633333333e-17
42.6,2.2951962333333332e-17
42.7,2.3771766e-17
42.8,2.4838536666666665e-17
42.900000000000006,2.6544046666666664e-17
43.0,2.8369696666666665e-17
43.099999999999994,3.010814333333333e-17
43.199999999999996,3.224558e-17
43.29999999999999,3.413820666666667e-17
43.4,3.470526666666667e-17
43.5,3.471166333333333e-17
43.599999999999994,3.5029836666666665e-17
43.7,3.4991209999999994e-17
43.8,3.445133e-17
43.9,3.434460333333333e-17
44.0,3.458093e-17
44.1,3.489977666666667e-17
44.2,3.591129666666666e-17
44.3,3.717364333333333e-17
44.4,3.741236666666666e-17
44.49999999999999,3.725228333333333e-17
44.6,3.765302e-17
44.7,3.759054e-17
44.79999999999999,3.642907666666667e-17
44.89999999999999,3.5356379999999995e-17
45.0,3.469186999999999e-17
45.10000000000001,3.3916456666666674e-17
45.2,3.349749e-17
45.3,3.3486536666666664e-17
45.4,3.285356e-17
45.5,3.200572666666667e-17
45.599999999999994,3.192076666666667e-17
45.70000000000001,3.160055333333333e-17
45.79999999999999,3.0100556666666664e-17
45.9,2.861480333333333e-17
46.0,2.776426333333333e-17
46.099999999999994,2.676079833333333e-17
46.20000000000001,2.5690568999999996e-17
46.300000000000004,2.5018727e-17
46.4,2.4131525999999998e-17
46.49999999999999,2.305937433333333e-17
46.6,2.2523418666666664e-17
46.70000000000001,2.1852837000000003e-17
46.800000000000004,2.0171284333333334e-17
46.9,1.8426106999999996e-17
47.0,1.7310480833333334e-17
47.099999999999994,1.6117150533333332e-17
47.199999999999996,1.47630719e-17
47.29999999999999,1.3876976066666666e-17
47.39999999999999,1.3197502633333332e-17
47.5,1.2540422599999998e-17
47.6,1.229404833333333e-17
47.699999999999996,1.2051546333333333e-17
47.79999999999999,1.1156156e-17
47.900000000000006,1.0175765333333334e-17
48.0,9.558411666666666e-18
48.099999999999994,8.857958333333333e-18
48.19999999999999,8.132267e-18
48.3,7.870492333333332e-18
48.400000000000006,7.842427333333333e-18
48.5,8.015202333333334e-18
48.6,8.752659333333334e-18
48.7,9.571887000000001e-18
48.79999999999999,9.811763333333334e-18
48.89999999999999,9.931163333333332e-18
49.00000000000001,1.0204612666666668e-17
49.1,1.0206815899999998e-17
49.2,1.0138097999999998e-17
49.3,1.046325468e-17
49.39999999999999,1.0902685763333333e-17
49.50000000000001,1.1669539533333331e-17
49.6,1.3392330466666663e-17
49.7,1.5398918666666665e-17
49.8,1.6729505999999997e-17
49.899999999999984,1.7940644666666664e-17
50.0,1.9352446e-17
50.1,2.0096453666666663e-17
50.199999999999996,2.0087703999999996e-17
50.300000000000004,2.0054549666666665e-17
50.4,1.9912879666666666e-17
50.49999999999999,1.9867056666666666e-17
50.60000000000001,2.0831693333333328e-17
50.7,2.243669e-17
50.8,2.3672263333333334e-17
50.9,2.5209539999999997e-17
50.99999999999999,2.7587463333333327e-17
51.1,2.944123e-17
51.2,2.999829333333333e-17
51.3,3.013807666666666e-17
51.4,2.999257e-17
51.50000000000001,2.922475333333333e-17
51.6,2.8552976666666664e-17
51.7,2.830109333333333e-17
51.8,2.789106e-17
51.89999999999999,2.797097e-17
52.0,2.9386739999999997e-17
52.099999999999994,3.0952919999999994e-17
52.199999999999996,3.1526506666666665e-17
52.300000000000004,3.193226333333333e-17
52.4,3.245145333333333e-17
52.50000000000001,3.2059873333333335e-17
52.599999999999994,3.0769563333333337e-17
52.7,2.937468666666666e-17
52.8,2.7807826666666666e-17
52.9,2.6329573333333334e-17
52.99999999999999,2.577873433333333e-17
53.1,2.575815833333333e-17
53.2,2.5419783333333328e-17
53.3,2.535841666666666e-17
53.4,2.5924306666666662e-17
53.49999999999999,2.5967836666666665e-17
53.60000000000001,2.494415e-17
53.7,2.359444333333333e-17
53.79999999999999,2.2081549999999998e-17
53.89999999999999,2.0212731666666664e-17
54.0,1.8489987666666666e-17
54.10000000000001,1.7208380333333332e-17
54.2,1.6104319e-17
54.3,1.5492777666666664e-17
54.4,1.565874333333333e-17
54.5,1.5888696666666668e-17
54.599999999999994,1.5602473666666665e-17
54.70000000000001,1.5099837999999997e-17
54.800000000000004,1.4386088e-17
54.9,1.3122944066666664e-17
55.0,1.1513526633333333e-17
55.099999999999994,9.950468533333335e-18
55.20000000000001,8.511428613333334e-18
55.300000000000004,7.490784986666665e-18
55.4,7.173549399999999e-18
55.49999999999999,7.316297999999998e-18
55.60000000000001,7.6346465e-18
55.7,8.118584666666666e-18
55.800000000000004,8.486770000000001e-18
55.9,8.443195e-18
56.0,8.065036333333332e-18
56.1,7.361611e-18
56.199999999999996,6.273801666666666e-18
56.29999999999999,5.286438e-18
56.400000000000006,4.855825666666667e-18
56.5,4.859877333333333e-18
56.6,5.2538676666666655e-18
56.699999999999996,6.227751333333333e-18
56.79999999999999,7.486671666666666e-18
56.900000000000006,8.677529266666664e-18
57.0,9.810685066666665e-18
57.099999999999994,1.0560029733333333e-17
57.20000000000001,1.0462662283333335e-17
57.3,1.0023476858666666e-17
57.400000000000006,9.878753946666665e-18
57.500000000000014,9.741276633333331e-18
57.6,9.542944833333334e-18
57.699999999999996,1.0068252066666667e-17
57.79999999999999,1.1484238999999999e-17
57.899999999999984,1.3250331666666665e-17
58.00000000000001,1.5260547666666668e-17
58.1,1.7368326e-17
58.2,1.8888025333333334e-17
58.3,1.9812923333333333e-17
58.39999999999999,2.0584525000000002e-17
58.5,2.072562233333333e-17
58.599999999999994,1.9865729666666666e-17
58.69999999999999,1.9082863666666662e-17
58.79999999999998,1.914534e-17
58.9,1.947926333333333e-17
58.99999999999999,1.994895e-17
59.1,2.1202976666666668e-17
59.20000000000001,2.3031466666666666e-17
59.300000000000004,2.4801013333333333e-17
